##TITLE= Unknown Sample
##JCAMP-DX= 4.24 +VG
##SAMPLE_DESCRIPTION=
##DATE= 2013-06-21
##TIME= 08:37:21
##DATA_TYPE= Mass Spectrum
##SPECTROMETER_SYSTEM= SHIMADZU
##EXPERIMENT_NAME= 
##INLET= LC
##IONIZATION_MODE= ESI+
##RESOLUTION= 
##SCAN_RANGE= 200,600
##SCAN_TIME_UNITS= Seconds
##XUNITS= m/z
##SCAN_NUMBER= 1
##RETENTION_TIME= 0.000
##TIC= 573858
##NPOINTS= 482
##XYDATA= (XY..XY)
200.50,968
201.15,585
201.85,196
203.00,1534
204.15,533
205.30,501
206.15,1372
207.25,486
207.80,315
208.35,482
209.05,326
209.55,244
210.20,143
210.80,337
211.90,622
212.60,287
213.20,176
213.85,184
214.35,287
215.00,506
215.55,233
216.20,462
216.80,188
217.45,286
218.00,297
219.10,623
219.85,323
220.30,498
221.00,796
221.65,231
222.20,249
222.80,126
223.40,280
224.05,712
224.65,231
225.20,208
225.85,750
227.05,2441
228.15,360
228.80,157
229.45,211
230.00,372
230.60,281
231.15,178
232.05,932
233.05,805
233.50,530
234.30,533
234.85,282
235.40,319
236.10,528
236.60,256
237.10,418
237.95,413
239.15,1276
240.25,162
241.30,1123
242.15,648
242.90,886
243.80,140
244.45,197
245.05,918
245.90,964
246.80,474
247.40,211
248.00,832
248.60,547
249.10,794
249.90,875
250.45,1208
251.00,313
252.10,421
252.80,290
253.45,252
254.00,300
255.20,833
256.30,2037
257.10,1965
258.20,267
258.85,325
259.40,242
260.05,807
260.55,406
261.15,265
261.90,630
##SCAN_NUMBER= 3
##RETENTION_TIME= 0.300
##TIC= 600818
##NPOINTS= 473
##XYDATA= (XY..XY)
200.15,679
200.75,858
201.30,279
201.80,318
203.00,1215
203.95,631
204.95,334
206.10,1063
207.25,793
208.30,681
209.15,319
209.70,297
210.30,161
210.85,374
211.50,244
212.10,497
212.70,397
213.25,295
214.15,813
215.05,577
216.15,550
216.95,262
217.50,251
218.00,441
219.00,1084
219.90,403
220.50,712
221.10,577
221.95,695
223.00,298
223.45,284
224.10,543
224.70,441
225.85,1064
227.20,816
228.00,765
228.90,200
229.50,181
230.05,410
230.70,305
231.25,184
231.95,370
232.50,231
233.10,785
233.65,359
234.25,480
234.95,387
235.45,260
##SCAN_NUMBER= 5
##RETENTION_TIME= 0.600
##TIC= 605150
##NPOINTS= 480
##XYDATA= (XY..XY)
200.20,450
200.80,924
201.70,689
203.05,1234
203.85,446
204.35,227
205.05,595
205.60,292
206.15,625
207.30,615
208.25,955
209.15,296
209.80,337
210.40,211
211.00,457
211.55,224
212.20,661
213.25,786
214.05,960
214.65,351
215.20,400
216.10,783
217.05,387
217.95,767
218.90,830
219.30,591
219.95,265
220.50,887
221.15,436
222.10,855
223.05,443
223.55,204
224.15,444
224.75,610
225.85,1443
##END=
